***Scan Config Information***,,,,,,,***Reference Scan Information***,,,,,,,,
Scan Config Name:,Column 1,,,,,,Scan Config Name:,Built-in Factory Reference,,,,,,
Scan Config Type:,Slew,Num Section:,1,,,,Scan Config Type:,Slew,Num Section:,1,,,,,
Section Config Type:,Column,,,,,,Section Config Type:,Column,,,,,,,
Start Wavelength (nm):,900,,,,,,Start Wavelength (nm):,900.0,,,,,,
End Wavelength (nm):,1700,,,,,,End Wavelength (nm):,1700.0,,,,,,
Pattern Width (nm):,7.03,,,,,,Pattern Width (nm):,7.03,,,,,,,
Exposure (ms):,0.635,,,,,,Exposure (ms):,0.635,,,,,,,
Digital Resolution:,228,,,,,,Digital Resolution:,228,,,,,,,
Num Repeats:,6,,,,,,Num Repeats:,30,,,,,,,
PGA Gain:,64,,,,,,PGA Gain:,64,,,,,,
System Temp (C):,31.72,,,,,,System Temp (C):,21.93,,,,,,,
Humidity (%):,58.11,,,,,,Humidity (%):,50.0,,,,,,
Battery Capacity (%):,48,,,,,,Lamp Indicator:,844,,,,,,,
Lamp ADC:,3075,3076,847,840,,,Data Date-Time:,22/12/3T10:21:45
Data Date-Time:,24/12/24T8:49:42,,,,,,,,,,,,,,
Total Measurement Time in sec:,4.656,,,,,,,,,,,,,
***General Information***,,,,,,,***Calibration Coefficients***,,,,,,,,
Model Name:,NIR-S-G1,,,,,,Shift Vector Coefficients:,-9.47682445822096,0.06335633134729837,-9.945651154748225E-5,,,,,
Serial Number:,B48R022,95UB125GC0VB48R022,,,,,Pixel to Wavelength Coefficients:,1781.5173138951582,-0.9243750177103842,-2.4068354370442046E-4,,,,,
APP Version:,2.18.18,,,,,,,,,,,,,
TIVA Version:,2.4.7,,,,,,***Lamp Usage * **,,,,,,,,
UUID:,DE:67:0C:88:67:36:85:21,,,,,,Total Time(HH:MM:SS):,16min 53sec ,,,,,,,
Main Board Version:,F,,,,,,***Device/Error Status***,,,,,,,,
Detector Board Version:,C,,,,,,Device Status:,0x00000031,,,,,,
,,,,,,,Error status:,0x00000000,Error Code:,0x0000000000000000000000000000000000000000,,,,,
,,,,,,,,,Error Details:,Not Found,,,,,
***Scan Data***,,,,,,,,,,,,,,,
Wavelength (nm),Absorbance (AU),Reference Signal (unitless),Sample Signal (unitless)
901.7027176155216,0.6413977,65487.0,14954
905.6137944632871,0.63958657,73967.0,16961
909.5205390072663,0.6437026,81689.0,18555
913.4229512474585,0.63745546,90803.0,20924
917.3210311838641,0.63656116,102058.0,23566
921.2147788164831,0.6422389,117841.0,26857
925.1041941453153,0.64806175,138509.0,31147
928.9892771703609,0.64624715,161433.0,36454
934.1626487311979,0.6417501,191085.0,43599
938.0376230474079,0.6340961,210376.0,48854
941.9082650598311,0.6253912,226921.0,53763
945.7745747684678,0.6251303,242582.0,57508
949.6365521733178,0.6195162,256693.0,61645
953.4941972743811,0.61511385,271256.0,65806
957.3475100716577,0.61575025,286098.0,69305
961.1964905651475,0.6134118,301010.0,73311
965.0411387548509,0.61400706,316759.0,77041
968.8814546407674,0.61202884,333676.0,81526
973.9951366827657,0.60848266,358722.0,88364
977.8253438598467,0.6066277,378403.0,93611
981.6512187331409,0.60692215,398901.0,98615
985.4727613026486,0.6073147,417578.0,103139
989.2899715683694,0.60633284,434001.0,107438
993.1028495303037,0.605471,447376.0,110969
996.9113951884514,0.6036927,458372.0,114163
1000.7156085428122,0.60184,469782.0,117505
1004.5154895933864,0.6000507,481097.0,120832
1008.3110383401739,0.59850264,491442.0,123871
1013.3650308633337,0.5949212,502787.0,127780
1017.1504709012855,0.5937649,510119.0,129989
1020.9315786354508,0.59333766,516686.0,131792
1024.7083540658293,0.5915775,521601.0,133586
1028.4807971924213,0.58983785,524521.0,134873
1032.2489080152263,0.58795506,526310.0,135921
1036.0126865342452,0.5864683,526680.0,136483
1039.772132749477,0.5844912,526512.0,137062
1043.5272466609222,0.58400303,526120.0,137114
1048.527326070292,0.5823525,524843.0,137302
1052.2723312729017,0.5793738,523894.0,137997
1056.0130041717246,0.57906586,522965.0,137850
1059.7493447667607,0.57933056,521625.0,137413
1063.4813530580104,0.5779285,520481.0,137555
1067.2090290454732,0.57690334,519386.0,137590
1070.9323727291494,0.5752202,518569.0,137907
1074.6513841090389,0.5743914,518147.0,138058
1078.3660631851417,0.57291085,517588.0,138380
1082.076409957458,0.57264847,518165.0,138618
1087.0167998479892,0.5725825,518262.0,138665
1090.7170379114698,0.57198656,518253.0,138853
1094.4129436711637,0.5719664,520472.0,139454
1098.1045171270707,0.57194453,522073.0,139890
1101.7917582791915,0.56854254,523961.0,141500
1105.4746671275252,0.5691905,526160.0,141882
1109.1532436720722,0.56950116,528611.0,142441
1112.827487912833,0.569458,531438.0,143217
1116.4973998498067,0.56658465,533109.0,144621
1121.383876626548,0.56710196,536922.0,145482
1125.0436798546862,0.56804574,540546.0,146146
1128.699150779038,0.5679322,543777.0,147058
1132.3502893996028,0.57046604,547766.0,147275
1135.997095716381,0.570154,551171.0,148297
1139.6395697293724,0.57358426,554695.0,148071
1143.2777114385772,0.5743812,558735.0,148876
1146.9115208439955,0.57660145,562787.0,149191
1150.540997945627,0.57951415,567554.0,149449
1154.1661427434717,0.5791881,572380.0,150833
1158.9929300013746,0.5795171,578780.0,152404
1162.6079660903836,0.5804802,583361.0,153270
1166.218669875606,0.58135086,589009.0,154444
1169.8250413570422,0.58090115,595257.0,156244
1173.4270805346914,0.5823887,601581.0,157364
1177.0247874085537,0.5813161,608437.0,159551
1180.6181619786296,0.58205444,614973.0,160991
1184.2072042449186,0.58167994,622870.0,163199
1187.791914207421,0.58075005,630720.0,165610
1191.372291866137,0.5804565,638781.0,167840
1196.139389605201,0.5818861,650544.0,170369
1199.7096585550812,0.58127373,659915.0,173067
1203.2755952011746,0.58141834,669354.0,175484
1206.8371995434813,0.58139116,678977.0,178018
1210.3944715820016,0.5800688,689347.0,181288
1213.9474113167353,0.57945675,699741.0,184281
1217.4960187476818,0.5780748,710073.0,187598
1221.040293874842,0.5773148,721153.0,190859
1224.5802366982155,0.5774005,732633.0,193859
1229.2934213234896,0.5752516,747688.0,198824
1232.8232554380274,0.5747482,759052.0,202080
1236.3487572487786,0.57462084,770872.0,205287
1239.869926755743,0.57385004,783363.0,208984
1243.386763958921,0.5732784,795229.0,212429
1246.899268858312,0.5715584,806885.0,216398
1250.4074414539164,0.5719797,818936.0,219417
1253.9112817457344,0.57197195,832589.0,223079
1257.4107897337653,0.57085574,845927.0,227236
1260.9059654180098,0.571293,859121.0,230548
1265.5594605244453,0.5709662,875663.0,235164
1269.0445274998542,0.5715213,886186.0,237686
1272.5252621714762,0.5702588,896008.0,241020
1276.0016645393116,0.5709652,905651.0,243218
1279.4737346033605,0.5704946,914661.0,245904
1282.9414723636228,0.570348,922912.0,248206
1286.4048778200981,0.57176584,930552.0,249445
1289.8639509727868,0.57192975,937087.0,251102
1293.3186918216888,0.5726218,943493.0,252416
1296.7691003668042,0.5735945,950104.0,253616
1301.3629059544012,0.57485497,957235.0,254779
1304.803205790681,0.5760268,962176.0,255404
1308.239173323174,0.5777417,967212.0,255729
1311.6708085518803,0.57986045,971277.0,255554
1315.0981114768003,0.58137685,974762.0,255577
1318.5210820979332,0.5843588,978137.0,254707
1321.9397204152797,0.5875903,981256.0,253625
1325.3540264288395,0.59024495,983808.0,252735
1328.7640001386126,0.5926617,986092.0,251916
1333.3038926124195,0.597289,988133.0,249762
1336.703757613357,0.60154253,989772.0,247738
1340.0992903105077,0.6050446,990838.0,246013
1343.490490703872,0.6086546,991173.0,244059
1346.8773587934493,0.6117517,990630.0,242192
1350.2598945792402,0.6154696,990236.0,240032
1353.6380980612441,0.61951655,988247.0,237328
1357.0119692394615,0.6241254,986506.0,234409
1360.3815081138923,0.627818,984365.0,231920
1363.746714684536,0.63206494,983233.0,229399
1368.2269176395046,0.6390258,982081.0,225487
1371.582015501313,0.64529425,980531.0,221905
1374.9327810593347,0.65559155,978674.0,216295
1378.2792143135698,0.6698812,975078.0,208525
1381.6213152640182,0.6871217,970664.0,199502
1384.95908391068,0.7062221,966673.0,190133
1388.292520253555,0.73166645,963155.0,178661
1391.6216242926434,0.75868195,959765.0,167295
1394.946396027945,0.7874901,956235.0,155982
1398.26683545946,0.8166941,951993.0,145191
1402.6873488955898,0.8551887,947368.0,132230
1405.997679618269,0.88122135,944160.0,124115
1409.3036780371617,0.90449536,941570.0,117316
1412.605344152268,0.9242669,938354.0,111712
1415.9026779635874,0.94266135,934899.0,106685
1419.19567947112,0.95309496,932408.0,103875
1422.484348674866,0.96473134,930179.0,100887
1425.7686855748254,0.9726373,927681.0,98801
1429.048690170998,0.9824521,925595.0,96376
1433.4152904933378,0.9895997,923478.0,94586
1436.6851863806748,0.99531883,921276.0,93126
1439.9507499642252,0.999092,919765.0,92169
1443.211981243989,1.0019628,917216.0,91308
1446.468880219966,1.004057,914897.0,90639
1449.7214468921566,1.0055901,912105.0,90044
1452.96968126056,1.007463,909180.0,89369
1456.213583325177,1.0094934,905785.0,88620
1459.4531530860074,1.0038071,902638.0,89476
1462.6883905430511,1.0039195,898553.0,89048
1466.9953013465522,0.9999474,892532.0,89264
1470.2204300947603,0.9929333,888032.0,90260
1473.4412265391816,0.986552,882748.0,91051
1476.6576906798164,0.98015296,876906.0,91791
1479.8698225166643,0.9696899,870711.0,93365
1483.0776220497255,0.96211237,863972.0,94273
1486.2810892790003,0.95262104,857355.0,95618
1489.4802242044884,0.94279355,850155.0,96985
1492.6750268261897,0.9317067,842971.0,98652
1496.928024515901,0.91947496,832761.0,100241
1500.1127184287666,0.91246724,824279.0,100834
1503.2930800378456,0.9019931,816152.0,102277
1506.469109343138,0.89180773,807523.0,103597
1509.6408063446438,0.8834069,799140.0,104524
1512.8081710423626,0.8756547,790199.0,105216
1515.9712034362951,0.8671643,779467.0,105836
1519.1299035264406,0.8573608,770227.0,106969
1522.2842713127995,0.8500705,760358.0,107386
1525.4343067953719,0.8420337,750615.0,107990
1529.6276149662444,0.8320528,736455.0,108416
1532.7675417399812,0.82391375,725455.0,108817
1535.9031362099313,0.81702286,714921.0,108952
1539.0343983760945,0.809988,704370.0,109097
1542.1613282384712,0.8031611,693257.0,109077
1545.283925797061,0.7984258,681766.0,108445
1548.4021910518645,0.79378057,670731.0,107837
1551.516124002881,0.7849261,659163.0,108160
1554.625724650111,0.77950627,647467.0,107575
1557.7309929935543,0.77355707,635375.0,107022
1561.8646116455882,0.76802325,619716.0,105723
1564.9597712801958,0.7633798,607645.0,104778
1568.0505986110168,0.7592008,594830.0,103560
1571.1370936380513,0.75430673,582343.0,102535
1574.219256361299,0.7496117,569137.0,101299
1577.2970867807599,0.74652934,556214.0,99704
1580.370584896434,0.7418456,543465.0,98475
1583.4397507083215,0.7369825,531323.0,97359
1586.5045842164225,0.7370112,518909.0,95078
1590.5842897546668,0.7309117,502631.0,93398
1593.639014553932,0.7286609,490155.0,91553
1596.6894070494106,0.7248825,478500.0,90157
1599.7354672411027,0.7217507,466494.0,88531
1602.7771951290079,0.71748596,454041.0,87018
1605.8145907131266,0.71530265,442196.0,85175
1608.8476539934584,0.7143023,429975.0,83012
1611.8763849700038,0.71220756,417478.0,80989
1614.9007836427622,0.7111108,405252.0,78816
1617.920850011734,0.7068138,393152.0,77223
1621.9408660311396,0.70686984,376965.0,74034
1624.950823691276,0.70295525,365105.0,72354
1627.9564490476255,0.70073867,353577.0,70428
1630.9577421001884,0.6985208,342056.0,68482
1633.9547028489646,0.6995602,330594.0,66029
1636.9473312939542,0.69743437,319578.0,64142
1639.9356274351571,0.69552296,308333.0,62158
1642.9195912725734,0.69212085,297122.0,60369
1645.899222806203,0.69045615,285140.0,58157
1648.8745220360458,0.68628806,272680.0,56152
1652.8348485366125,0.6808679,254426.0,53051
1655.8000390576199,0.67081875,239384.0,51083
1658.7608972748405,0.6552977,221724.0,49036
1661.7174231882743,0.63883376,201961.0,46391
1664.6696167979217,0.6176787,180753.0,43592
1667.617478103782,0.593738,158321.0,40346
1670.561007105856,0.5597785,136807.0,37699
1673.5002038041432,0.54321116,116708.0,33411
1676.4350681986439,0.5174543,98288.0,29857
1680.3414815854208,0.50375575,77750.0,24375
1683.2662372710856,0.49540377,64648.0,20661
1686.186660652964,0.50025904,54373.0,17184
1689.1027517310556,0.49354196,45790.0,14697
1692.0145105053605,0.50682837,38992.0,12138
1694.9219369758787,0.525724,33180.0,9889
1697.8250311426102,0.51903677,28510.0,8629
1700.723793005555,0.5101532,24550.0,7584

***Lamp Ramp Up ADC***,
ADC0,ADC1,ADC2,ADC3
3076,3076,857,856
3074,3074,855,854
3074,3076,855,853
3073,3075,855,851
3076,3078,852,849
3074,3074,852,850
3073,3075,853,848
3074,3075,853,847
3073,3076,851,846
3073,3076,850,846
3074,3074,850,845
3075,3074,849,844
3074,3077,849,845
3073,3075,848,843
3073,3075,849,843
3074,3076,849,842
3075,3075,850,843
3075,3075,850,843
3073,3075,848,842
3074,3075,849,843
3075,3074,849,842
3076,3075,848,842
3074,3076,848,842
3075,3075,849,842
3075,3075,849,842
3075,3075,849,841
3073,3076,848,842
3073,3076,849,842
3075,3076,848,841
3074,3077,849,841
3077,3076,848,841
3076,3075,848,841
3076,3075,848,841
3076,3075,849,840
3074,3076,848,840
3074,3075,849,841
3083,3078,847,840
3076,3075,848,840
3074,3078,847,840
3076,3074,848,840
3074,3074,848,840
3075,3075,847,840
3075,3075,847,839
3073,3075,847,840
3074,3075,848,841
3073,3074,848,841
3076,3074,849,840
3074,3075,848,840
3075,3076,847,841
3075,3076,847,840
3076,3075,847,840
3077,3074,847,841
3076,3074,848,841
3073,3076,848,840
3075,3075,847,840
3075,3075,848,841
3072,3076,847,840
3075,3074,847,842
3074,3075,848,840
3073,3075,849,840
3074,3076,847,840
3074,3075,848,841
3076,3075,848,841
3074,3075,848,840
3075,3077,847,841
3074,3075,847,841
3075,3075,847,840
3074,3074,847,840

***Lamp ADC among repeated times***,
ADC0,ADC1,ADC2,ADC3
3074,3077,848,840
3075,3075,846,840
3078,3075,847,839
3075,3077,848,839
3075,3078,845,840
3074,3075,847,840
